15.0300	447.2612	15.0800	418.3314	15.0300	223.6487	15.0800	213.8187
15.4900	454.5733	15.5100	420.9442	15.4900	229.5890	15.5100	212.7742
15.9900	443.6518	16.0200	424.3873	15.9900	227.4972	16.0200	212.9897
16.4800	445.7704	16.5100	418.8732	16.4800	225.6115	16.5100	213.3552
16.9700	452.9601	17.0000	411.6106	16.9700	226.1580	17.0000	211.3956
17.4600	443.4351	17.5300	412.2006	17.4600	221.4924	17.5300	218.1911
17.9700	441.6859	18.0000	420.2686	17.9700	225.7990	18.0000	212.4769
18.4600	440.6172	18.5100	416.8552	18.4600	225.3156	18.5100	215.2498
18.9600	438.8988	19.0100	409.5258	18.9600	224.8981	19.0100	211.9820
19.4600	437.9772	19.5100	412.9625	19.4600	226.8737	19.5100	211.5225
19.9500	433.7353	20.0000	421.6183	19.9500	220.2723	20.0000	209.0730
20.4600	436.5185	20.4900	404.8424	20.4600	224.6411	20.4900	206.6585
20.9600	436.5637	21.0000	403.9039	20.9600	222.1876	21.0000	206.4092
21.4600	429.0926	21.5000	404.0562	21.4600	217.4539	21.5000	205.9000
21.9600	428.4549	21.9900	405.7653	21.9600	218.5957	21.9900	202.1032
22.4800	434.1818	22.5100	400.7518	22.4800	218.7403	22.5100	203.1347
22.9500	425.4487	23.0000	400.3220	22.9500	218.3589	23.0000	202.2619
23.4600	425.8784	23.4600	398.0463	23.4600	216.5018	23.4600	202.8673
23.9700	424.7414	24.0000	397.8037	23.9700	219.2201	24.0000	204.3063
24.4500	425.3929	24.4900	396.6279	24.4500	217.1365	24.4900	199.7958
24.9500	440.6932	24.9900	396.0088	24.9500	217.2460	24.9900	198.9688
25.4800	418.3200	25.5400	395.4283	25.4800	209.8106	25.5400	199.1077
25.9500	411.7471	26.0100	390.9149	25.9500	213.2108	26.0100	198.9477
26.4600	422.4483	26.4900	383.1954	26.4600	212.9641	26.4900	198.0591
26.9700	412.6266	27.0200	395.8343	26.9700	215.5847	27.0200	196.4876
27.4800	416.2691	27.5100	388.1761	27.4800	212.6595	27.5100	197.5250
27.9700	409.3931	27.9800	382.8369	27.9700	219.1852	27.9800	192.4848
28.4700	409.4057	28.5100	381.9895	28.4700	209.5529	28.5100	196.8217
28.9800	410.7521	29.0400	377.6291	28.9800	207.6350	29.0400	193.6331
29.4800	405.7430	29.4900	384.1692	29.4800	207.6714	29.4900	192.9477
29.9800	410.0944	30.0100	381.2024	29.9800	208.0556	30.0100	196.0102
30.4600	399.8116	30.5000	377.8259	30.4600	208.3004	30.5000	192.5042
30.9500	401.5509	30.9900	376.4009	30.9500	204.9931	30.9900	192.5020
31.4600	399.3566	31.5000	377.6508	31.4600	207.7627	31.5000	193.3374
31.9500	396.6717	31.9900	373.5721	31.9500	203.3952	31.9900	188.9939
32.4700	394.3155	32.5000	373.7546	32.4700	202.0130	32.5000	195.3226
32.9500	391.6580	33.0200	372.4127	32.9500	203.3689	33.0200	187.5360
33.4600	395.3203	33.5100	364.6010	33.4600	203.1987	33.5100	188.4982
33.9800	395.2370	34.0000	374.9637	33.9800	203.4952	34.0000	186.0757
34.4800	386.2732	34.5000	365.5628	34.4800	200.5594	34.5000	187.1064
34.9700	386.3066	35.0100	366.8411	34.9700	202.4935	35.0100	187.2143
35.4500	387.7058	35.4900	361.8390	35.4500	198.8502	35.4900	186.8766
35.9700	385.6589	36.0000	364.7673	35.9700	201.6564	36.0000	189.0221
36.4800	393.8393	36.4900	360.0280	36.4800	198.6761	36.4900	183.8579
36.9500	381.6262	37.0100	361.4796	36.9500	196.3082	37.0100	183.3147
37.4700	382.4213	37.5000	356.2438	37.4700	200.5462	37.5000	180.8215
37.9700	391.5099	38.0000	364.1075	37.9700	198.8178	38.0000	182.3388
38.4700	383.9174	38.5100	352.4242	38.4700	195.6526	38.5100	181.3065
39.0000	380.4700	39.0300	350.2867	39.0000	195.8417	39.0300	180.2311
39.4700	374.5047	39.5000	350.0615	39.4700	194.9864	39.5000	180.0128
39.9800	377.8541	40.0000	351.6062	39.9800	192.9213	40.0000	179.9291
40.4700	370.5363	40.5100	349.5517	40.4700	194.1278	40.5100	180.5379
41.0000	371.9725	41.0100	356.5693	41.0000	191.4802	41.0100	175.2309
41.4800	369.1952	41.5100	352.9132	41.4800	190.1502	41.5100	180.7439
41.9700	370.5713	42.0000	347.5005	41.9700	189.4276	42.0000	177.0274
42.4600	377.4400	42.5300	343.4200	42.4600	188.9390	42.5300	174.3137
42.9700	368.2157	43.0100	340.5767	42.9700	189.5511	43.0100	179.6174
43.4500	361.8463	43.4900	343.7206	43.4500	186.8423	43.4900	173.6237
43.9600	362.6514	43.9900	342.7293	43.9600	187.9791	43.9900	173.6205
44.4900	356.5806	44.5100	340.8157	44.4900	185.5219	44.5100	175.8840
44.9800	360.8990	45.0000	337.5079	44.9800	186.5217	45.0000	174.8757
45.4500	360.4426	45.5000	342.7894	45.4500	188.9598	45.5000	173.5804
45.9800	357.3648	46.0000	336.9327	45.9800	182.7384	46.0000	170.4437
46.4500	354.2175	46.4900	332.3494	46.4500	183.6188	46.4900	170.4330
46.9700	353.9230	47.0000	330.7578	46.9700	181.7109	47.0000	169.2582
47.4800	351.7296	47.5000	331.9604	47.4800	183.3545	47.5000	169.3418
47.9600	352.4193	48.0100	335.9286	47.9600	180.7088	48.0100	171.4474
48.4900	349.6845	48.5000	327.1267	48.4900	179.2441	48.5000	168.3050
48.9700	347.6651	48.9900	327.5781	48.9700	180.6616	48.9900	167.3852
49.4500	350.2684	49.5200	326.4891	49.4500	179.4319	49.5200	170.5102
49.9600	341.2630	50.0100	323.5910	49.9600	179.4780	50.0100	167.8227
50.4700	342.1244	50.5200	325.0667	50.4700	178.6733	50.5200	166.4171
50.9400	342.2848	51.0100	326.7957	50.9400	181.1077	51.0100	166.1085
51.4500	341.8976	51.5000	321.1766	51.4500	178.3176	51.5000	163.8787
51.9600	337.7570	52.0800	317.9088	51.9600	172.4824	52.0800	163.5242
52.4500	338.2046	52.5100	314.5206	52.4500	177.8934	52.5100	164.8940
52.9600	338.9305	53.0000	320.1518	52.9600	171.7009	53.0000	162.7211
53.4600	335.0081	53.4800	315.5600	53.4600	175.9616	53.4800	160.4959
53.9500	329.7326	54.0000	312.6653	53.9500	170.9952	54.0000	161.1906
54.5000	329.7460	54.5200	310.3494	54.5000	169.0561	54.5200	158.3909
54.9700	323.6921	55.0000	302.3135	54.9700	171.7717	55.0000	158.3961
55.4600	324.1945	55.4900	301.6461	55.4600	168.0272	55.4900	156.7337
55.9500	314.9801	56.0100	301.2065	55.9500	167.3892	56.0100	155.3921
56.4800	311.9137	56.5000	293.7514	56.4800	164.5191	56.5000	152.6948
56.9800	303.5469	57.0000	289.6534	56.9800	162.1682	57.0000	151.3717
57.4500	299.9669	57.5000	280.9661	57.4500	156.1927	57.5000	150.8290
58.0100	280.3232	58.0300	268.3843	58.0100	152.5030	58.0300	147.4855
58.4800	274.6026	58.5000	262.5553	58.4800	150.5092	58.5000	142.9369
58.9800	262.6138	59.0200	246.9358	58.9800	143.5704	59.0200	140.4973
59.4800	244.3792	59.5100	233.3921	59.4800	140.5264	59.5100	130.9688
59.9700	232.3556	60.0100	223.0052	59.9700	137.0603	60.0100	129.1165
60.4800	217.8104	60.5200	210.5272	60.4800	130.3174	60.5200	122.4145
60.9800	205.3609	61.0000	199.3009	60.9800	123.8003	61.0000	117.7353
61.4700	199.4507	61.4800	190.2698	61.4700	118.3523	61.4800	114.4362
61.9600	191.7095	62.0200	180.1463	61.9600	117.2668	62.0200	111.8839
62.4700	181.7921	62.5700	176.2346	62.4700	110.4930	62.5700	108.9307
62.9600	178.3974	63.0700	174.5819	62.9600	110.9106	63.0700	106.2090
63.4800	174.3436	63.5200	170.3251	63.4800	108.7537	63.5200	102.8674
63.9600	168.6695	64.0000	163.4094	63.9600	105.3748	64.0000	101.1926
64.4900	166.7636	64.5300	160.9541	64.4900	104.3814	64.5300	100.1165
64.9900	161.5292	65.0300	159.7180	64.9900	104.1225	65.0300	99.7063
65.4600	160.3845	65.5200	155.4034	65.4600	100.2990	65.5200	97.5082
65.9700	159.6378	66.0100	153.5412	65.9700	100.0814	66.0100	96.7069
66.4600	155.9150	66.5300	152.2742	66.4600	99.1876	66.5300	95.4125
66.9700	152.9792	66.9900	149.3362	66.9700	97.5797	66.9900	94.8984
67.4700	153.2410	67.5000	148.0356	67.4700	97.8532	67.5000	95.6641
67.9500	153.4505	68.0000	147.7977	67.9500	96.6178	68.0000	92.3456
68.4900	149.5796	68.5200	141.4633	68.4900	97.1291	68.5200	91.1224
68.9800	147.9128	69.0100	143.5604	68.9800	95.6160	69.0100	92.5448
69.4600	148.2734	69.5300	139.5279	69.4600	94.6436	69.5300	91.4107
69.9600	148.4138	70.0000	138.7958	69.9600	95.2520	70.0000	90.2185
70.5000	144.0335	70.5300	137.7573	70.5000	95.7143	70.5300	89.0388
70.9700	142.9139	71.0000	136.8485	70.9700	91.6180	71.0000	89.0993
71.4800	141.7444	71.5300	134.2787	71.4800	91.6435	71.5300	86.1749
71.9600	144.3126	72.0500	134.4332	71.9600	94.4352	72.0500	87.2280
72.4600	140.0552	72.5000	134.6414	72.4600	89.6343	72.5000	86.1845
72.9800	138.5546	73.0500	132.0703	72.9800	90.2884	73.0500	85.7258
73.4900	141.1471	73.5300	130.0300	73.4900	89.2997	73.5300	84.0122
74.0100	137.0795	74.0200	128.5150	74.0100	89.1325	74.0200	84.1915
74.4700	137.1123	74.6300	126.6484	74.4700	87.4800	74.6300	82.2068
75.0000	134.8685	75.0200	127.5318	75.0000	86.6633	75.0200	81.9147
75.4700	133.5970	75.5800	124.8610	75.4700	86.0018	75.5800	81.3826
75.9700	133.0049	76.0200	125.9723	75.9700	84.0478	76.0200	81.1787
76.4700	132.7117	76.5300	122.4920	76.4700	86.6564	76.5300	81.2373
77.0000	129.8425	77.0300	122.0641	77.0000	84.3441	77.0300	77.2740
77.4700	127.9270	77.5300	121.9167	77.4700	85.6029	77.5300	79.4835
77.9700	127.8303	78.0100	118.6712	77.9700	84.3865	78.0100	76.5176
78.4600	125.9639	78.4800	120.2714	78.4600	83.1135	78.4800	75.7788
78.9900	126.2655	79.0100	118.1894	78.9900	82.3722	79.0100	75.2184
79.5000	124.4321	79.4800	115.8781	79.5000	81.1461	79.4800	78.0842
79.9600	124.9768	79.9800	116.4472	79.9600	79.7235	79.9800	75.2255
80.4700	124.4810	80.5000	114.6987	80.4700	78.3221	80.5000	74.0357
80.9700	122.8782	81.0100	116.4342	80.9700	78.9803	81.0100	73.5771
81.4700	120.7906	81.5100	112.0928	81.4700	74.7264	81.5100	74.1437
81.9800	120.2696	82.0000	115.4087	81.9800	76.1193	82.0000	71.8792
82.4700	118.3154	82.5300	111.0527	82.4700	76.4818	82.5300	70.4204
82.9700	118.5956	83.0300	110.6395	82.9700	76.6562	83.0300	71.4087
83.4700	116.7547	83.4800	108.9702	83.4700	74.1756	83.4800	70.5515
83.9900	115.1847	84.0100	109.7666	83.9900	74.2617	84.0100	69.8528
84.4800	116.1717	84.5200	106.5727	84.4800	72.7384	84.5200	68.7190
84.9600	115.8695	85.0300	110.2751	84.9600	74.0330	85.0300	69.5885
85.4900	113.7645	85.5000	109.0810	85.4900	72.7703	85.5000	68.3169
85.9700	113.1073	86.0000	105.6314	85.9700	71.3934	86.0000	67.9371
86.4600	112.6369	86.5300	103.3190	86.4600	71.2685	86.5300	67.4422
87.0100	112.9530	87.1000	106.0449	87.0100	70.9802	87.1000	67.1730
87.4900	112.1629	87.5000	103.8315	87.4900	71.9852	87.5000	64.8741
87.9900	108.6180	87.9900	101.8528	87.9900	70.5885	87.9900	65.2012
88.5000	109.1398	88.5700	102.1339	88.5000	69.5378	88.5700	64.3823
89.0100	110.5478	89.0200	99.0598	89.0100	68.1611	89.0200	63.3461
89.4700	107.3792	89.5200	101.1532	89.4700	68.3211	89.5200	62.7507
89.9600	105.3797	90.0300	98.6903	89.9600	68.0854	90.0300	63.0798
